Run, Time(s)
1, 0.0086
2, 0.0154
3, 0.0227
4, 0.031
5, 0.0386
6, 0.0479
7, 0.057
8, 0.065
9, 0.0751
10, 0.0844
11, 0.0918
12, 0.101
13, 0.1106
14, 0.1182
15, 0.1269
16, 0.1361
17, 0.1434
18, 0.1535
19, 0.1631
20, 0.1705
21, 0.1781
22, 0.1867
23, 0.1936
24, 0.2026
25, 0.2111
26, 0.2186
27, 0.2278
28, 0.2356
29, 0.2431
30, 0.2526
