Run, Time(s)
1, 0.0444
2, 0.0835
3, 0.116
4, 0.1558
5, 0.1953
6, 0.2274
7, 0.2662
8, 0.303
9, 0.3433
10, 0.3911
11, 0.4317
12, 0.4808
13, 0.5239
14, 0.566
15, 0.6084
16, 0.6472
17, 0.6838
18, 0.7268
19, 0.7598
20, 0.7958
21, 0.839
22, 0.8757
23, 0.9135
24, 0.9416
25, 0.9685
26, 1.0029
27, 1.0489
28, 1.0881
29, 1.1263
30, 1.1652