Run, Time(s)
1, 0.024
2, 0.0508
3, 0.0711
4, 0.0958
5, 0.1183
6, 0.1438
7, 0.1653
8, 0.1905
9, 0.2162
10, 0.2448
11, 0.2707
12, 0.2977
13, 0.3244
14, 0.3504
15, 0.3753
16, 0.4031
17, 0.4481
18, 0.4781
19, 0.5041
20, 0.531
21, 0.5554
22, 0.5769
23, 0.5983
24, 0.6211
25, 0.6439
26, 0.6699
27, 0.6959
28, 0.7196
29, 0.7457
30, 0.7719