Run, Time(s)
1, 0.0139
2, 0.0246
3, 0.0356
4, 0.046
5, 0.0589
6, 0.0719
7, 0.0839
8, 0.0959
9, 0.1074
10, 0.1199
11, 0.1317
12, 0.1426
13, 0.1528
14, 0.165
15, 0.1764
16, 0.1891
17, 0.2011
18, 0.2118
19, 0.2232
20, 0.234
21, 0.2432
22, 0.2535
23, 0.2653
24, 0.2784
25, 0.289
26, 0.2996
27, 0.3109
28, 0.3212
29, 0.3316
30, 0.3427
